Simulation Parameters
Resistance,1000
Capacitance, 1e-007

Input Voltage 1
Type, triangular
Amplitude, 10
Frequency, 1000
Phase Angle, 0
DC Offset, 25


Simulation Results
t,V_in,V_out
0,25,25
6.25e-005,50,37.6302
0.000125,75,46.2312
0.0001875,100,52.0885
0.00025,125,56.0772
0.0003125,100,17.5825
0.000375,75,-8.63197
0.0004375,50,-26.4837
0.0005,25,-38.6406
0.0005625,-1.98556e-014,-46.9193
0.000625,-25,-52.557
0.0006875,-50,-56.3963
0.00075,-75,-59.0107
0.0008125,-50,-19.5802
0.000875,-25,7.27154
0.0009375,1.25035e-013,25.5573
0.001,25,38.0097
0.0010625,50,46.4897
0.001125,75,52.2645
0.0011875,100,56.197
0.00125,125,58.8751
0.0013125,100,19.4878
0.001375,75,-7.33446
0.0014375,50,-25.6002
0.0015,25,-38.0389
0.0015625,-3.44979e-013,-46.5096
0.001625,-25,-52.278
0.0016875,-50,-56.2062
0.00175,-75,-58.8813
0.0018125,-50,-19.4921
0.001875,-25,7.33155
0.0019375,5.06702e-013,25.5982
0.002,25,38.0376
0.0020625,50,46.5087
0.002125,75,52.2774
0.0021875,100,56.2058
0.00225,125,58.881
0.0023125,100,19.4919
0.002375,75,-7.33168
0.0024375,50,-25.5983
0.0025,25,-38.0376
0.0025625,-7.79656e-013,-46.5087
0.002625,-25,-52.2774
0.0026875,-50,-56.2058
0.00275,-75,-58.8811
0.0028125,-50,-19.4919
0.002875,-25,7.33168
0.0029375,7.18739e-013,25.5983
0.003,25,38.0376
0.0030625,50,46.5087
0.003125,75,52.2774
0.0031875,100,56.2058
0.00325,125,58.8811
0.0033125,100,19.4919
0.003375,75,-7.33168
0.0034375,50,-25.5983
0.0035,25,-38.0376
0.0035625,-9.91693e-013,-46.5087
0.003625,-25,-52.2774
0.0036875,-50,-56.2058
0.00375,-75,-58.8811
0.0038125,-50,-19.4919
0.003875,-25,7.33168
0.0039375,9.30776e-013,25.5983
0.004,25,38.0376
0.0040625,50,46.5087
0.004125,75,52.2774
0.0041875,100,56.2058
0.00425,125,58.8811
0.0043125,100,19.4919
0.004375,75,-7.33168
0.0044375,50,-25.5983
0.0045,25,-38.0376
0.0045625,-1.2002e-012,-46.5087
0.004625,-25,-52.2774
0.0046875,-50,-56.2058
0.00475,-75,-58.8811
0.0048125,-50,-19.4919
0.004875,-25,7.33168
0.0049375,1.36545e-012,25.5983
0.005,25,38.0376
0.0050625,50,46.5087
0.005125,75,52.2774
0.0051875,100,56.2058
0.00525,125,58.8811
0.0053125,100,19.4919
0.005375,75,-7.33168
0.0054375,50,-25.5983
0.0055,25,-38.0376
0.0055625,-1.41223e-012,-46.5087
0.005625,-25,-52.2774
0.0056875,-50,-56.2058
0.00575,-75,-58.8811
0.0058125,-50,-19.4919
0.005875,-25,7.33168
0.0059375,1.80013e-012,25.5983
0.006,25,38.0376
0.0060625,50,46.5087
0.006125,75,52.2774
0.0061875,100,56.2058
0.00625,125,58.8811
0.0063125,100,19.4919
0.006375,75,-7.33168
0.0064375,50,-25.5983
0.0065,25,-38.0376
0.0065625,-1.84691e-012,-46.5087
0.006625,-25,-52.2774
0.0066875,-50,-56.2058
0.00675,-75,-58.8811
0.0068125,-50,-19.4919
0.006875,-25,7.33168
0.0069375,1.78599e-012,25.5983
0.007,25,38.0376
0.0070625,50,46.5087
0.007125,75,52.2774
0.0071875,100,56.2058
0.00725,125,58.8811
0.0073125,100,19.4919
0.007375,75,-7.33168
0.0074375,50,-25.5983
0.0075,25,-38.0376
0.0075625,-2.28512e-012,-46.5087
0.007625,-25,-52.2774
0.0076875,-50,-56.2058
0.00775,-75,-58.8811
0.0078125,-50,-19.4919
0.007875,-25,7.33168
0.0079375,2.22067e-012,25.5983
0.008,25,38.0376
0.0080625,50,46.5087
0.008125,75,52.2774
0.0081875,100,56.2058
0.00825,125,58.8811
0.0083125,100,19.4919
0.008375,75,-7.33168
0.0084375,50,-25.5983
0.0085,25,-38.0376
0.0085625,-2.26745e-012,-46.5087
0.008625,-25,-52.2774
0.0086875,-50,-56.2058
0.00875,-75,-58.8811
0.0088125,-50,-19.4919
0.008875,-25,7.33168
0.0089375,2.20653e-012,25.5983
0.009,25,38.0376
0.0090625,50,46.5087
0.009125,75,52.2774
0.0091875,100,56.2058
0.00925,125,58.8811
0.0093125,100,19.4919
0.009375,75,-7.33168
0.0094375,50,-25.5983
0.0095,25,-38.0376
0.0095625,-2.70566e-012,-46.5087
0.009625,-25,-52.2774
0.0096875,-50,-56.2058
0.00975,-75,-58.8811
0.0098125,-50,-19.4919
0.009875,-25,7.33168
0.0099375,2.64121e-012,25.5983
0.01,25,38.0376
0.0100625,50,46.5087
0.010125,75,52.2774
0.0101875,100,56.2058
0.01025,125,58.8811
0.0103125,100,19.4919
0.010375,75,-7.33168
0.0104375,50,-25.5983
0.0105,25,-38.0376
0.0105625,-2.68799e-012,-46.5087
0.010625,-25,-52.2774
0.0106875,-50,-56.2058
0.01075,-75,-58.8811
0.0108125,-50,-19.4919
0.010875,-25,7.33168
0.0109375,3.08295e-012,25.5983
0.011,25,38.0376
0.0110625,50,46.5087
0.011125,75,52.2774
0.0111875,100,56.2058
0.01125,125,58.8811
0.0113125,100,19.4919
0.011375,75,-7.33168
0.0114375,50,-25.5983
0.0115,25,-38.0376
0.0115625,-3.1262e-012,-46.5087
0.011625,-25,-52.2774
0.0116875,-50,-56.2058
0.01175,-75,-58.8811
0.0118125,-50,-19.4919
0.011875,-25,7.33168
0.0119375,3.51763e-012,25.5983
0.012,25,38.0376
0.0120625,50,46.5087
0.012125,75,52.2774
0.0121875,100,56.2058
0.01225,125,58.8811
0.0123125,100,19.4919
0.012375,75,-7.33168
0.0124375,50,-25.5983
0.0125,25,-38.0376
0.0125625,-3.56441e-012,-46.5087
0.012625,-25,-52.2774
0.0126875,-50,-56.2058
0.01275,-75,-58.8811
0.0128125,-50,-19.4919
0.012875,-25,7.33168
0.0129375,3.95584e-012,25.5983
0.013,25,38.0376
0.0130625,50,46.5087
0.013125,75,52.2774
0.0131875,100,56.2058
0.01325,125,58.8811
0.0133125,100,19.4919
0.013375,75,-7.33168
0.0134375,50,-25.5983
0.0135,25,-38.0376
0.0135625,-4.00262e-012,-46.5087
0.013625,-25,-52.2774
0.0136875,-50,-56.2058
0.01375,-75,-58.8811
0.0138125,-50,-19.4919
0.013875,-25,7.33168
0.0139375,4.39051e-012,25.5983
0.014,25,38.0376
0.0140625,50,46.5087
0.014125,75,52.2774
0.0141875,100,56.2058
0.01425,125,58.8811
0.0143125,100,19.4919
0.014375,75,-7.33168
0.0144375,50,-25.5983
0.0145,25,-38.0376
0.0145625,-4.43729e-012,-46.5087
0.014625,-25,-52.2774
0.0146875,-50,-56.2058
0.01475,-75,-58.8811
0.0148125,-50,-19.4919
0.014875,-25,7.33168
0.0149375,4.82872e-012,25.5983
0.015,25,38.0376
0.0150625,50,46.5087
0.015125,75,52.2774
0.0151875,100,56.2058
0.01525,125,58.8811
0.0153125,100,19.4919
0.015375,75,-7.33168
0.0154375,50,-25.5983
0.0155,25,-38.0376
0.0155625,-4.87197e-012,-46.5087
0.015625,-25,-52.2774
0.0156875,-50,-56.2058
0.01575,-75,-58.8811
0.0158125,-50,-19.4919
0.015875,-25,7.33168
0.0159375,4.35871e-012,25.5983
0.016,25,38.0376
0.0160625,50,46.5087
0.016125,75,52.2774
0.0161875,100,56.2058
0.01625,125,58.8811
0.0163125,100,19.4919
0.016375,75,-7.33168
0.0164375,50,-25.5983
0.0165,25,-38.0376
0.0165625,-4.40549e-012,-46.5087
0.016625,-25,-52.2774
0.0166875,-50,-56.2058
0.01675,-75,-58.8811
0.0168125,-50,-19.4919
0.016875,-25,7.33168
0.0169375,4.79692e-012,25.5983
0.017,25,38.0376
0.0170625,50,46.5087
0.017125,75,52.2774
0.0171875,100,56.2058
0.01725,125,58.8811
0.0173125,100,19.4919
0.017375,75,-7.33168
0.0174375,50,-25.5983
0.0175,25,-38.0376
0.0175625,-4.8437e-012,-46.5087
0.017625,-25,-52.2774
0.0176875,-50,-56.2058
0.01775,-75,-58.8811
0.0178125,-50,-19.4919
0.017875,-25,7.33168
0.0179375,4.33044e-012,25.5983
0.018,25,38.0376
0.0180625,50,46.5087
0.018125,75,52.2774
0.0181875,100,56.2058
0.01825,125,58.8811
0.0183125,100,19.4919
0.018375,75,-7.33168
0.0184375,50,-25.5983
0.0185,25,-38.0376
0.0185625,-5.27837e-012,-46.5087
0.018625,-25,-52.2774
0.0186875,-50,-56.2058
0.01875,-75,-58.8811
0.0188125,-50,-19.4919
0.018875,-25,7.33168
0.0189375,4.76511e-012,25.5983
0.019,25,38.0376
0.0190625,50,46.5087
0.019125,75,52.2774
0.0191875,100,56.2058
0.01925,125,58.8811
0.0193125,100,19.4919
0.019375,75,-7.33168
0.0194375,50,-25.5983
0.0195,25,-38.0376
0.0195625,-4.81189e-012,-46.5087
0.019625,-25,-52.2774
0.0196875,-50,-56.2058
0.01975,-75,-58.8811
0.0198125,-50,-19.4919
0.019875,-25,7.33168
0.0199375,5.20332e-012,25.5983
0.02,25,38.0376
0.0200625,50,46.5087
0.020125,75,52.2774
0.0201875,100,56.2058
0.02025,125,58.8811
0.0203125,100,19.4919
0.020375,75,-7.33168
0.0204375,50,-25.5983
0.0205,25,-38.0376
0.0205625,-5.2501e-012,-46.5087
0.020625,-25,-52.2774
0.0206875,-50,-56.2058
0.02075,-75,-58.8811
0.0208125,-50,-19.4919
0.020875,-25,7.33168
0.0209375,6.54622e-012,25.5983
0.021,25,38.0376
0.0210625,50,46.5087
0.021125,75,52.2774
0.0211875,100,56.2058
0.02125,125,58.8811
0.0213125,100,19.4919
0.021375,75,-7.33168
0.0214375,50,-25.5983
0.0215,25,-38.0376
0.0215625,-5.68478e-012,-46.5087
0.021625,-25,-52.2774
0.0216875,-50,-56.2058
0.02175,-75,-58.8811
0.0218125,-50,-19.4919
0.021875,-25,7.33168
0.0219375,5.17152e-012,25.5983
0.022,25,38.0376
0.0220625,50,46.5087
0.022125,75,52.2774
0.0221875,100,56.2058
0.02225,125,58.8811
0.0223125,100,19.4919
0.022375,75,-7.33168
0.0224375,50,-25.5983
0.0225,25,-38.0376
0.0225625,-6.11945e-012,-46.5087
0.022625,-25,-52.2774
0.0226875,-50,-56.2058
0.02275,-75,-58.8811
0.0228125,-50,-19.4919
0.022875,-25,7.33168
0.0229375,5.60619e-012,25.5983
0.023,25,38.0376
0.0230625,50,46.5087
0.023125,75,52.2774
0.0231875,100,56.2058
0.02325,125,58.8811
0.0233125,100,19.4919
0.023375,75,-7.33168
0.0234375,50,-25.5983
0.0235,25,-38.0376
0.0235625,-6.5612e-012,-46.5087
0.023625,-25,-52.2774
0.0236875,-50,-56.2058
0.02375,-75,-58.8811
0.0238125,-50,-19.4919
0.023875,-25,7.33168
0.0239375,6.0444e-012,25.5983
0.024,25,38.0376
0.0240625,50,46.5087
0.024125,75,52.2774
0.0241875,100,56.2058
0.02425,125,58.8811
0.0243125,100,19.4919
0.024375,75,-7.33168
0.0244375,50,-25.5983
0.0245,25,-38.0376
0.0245625,-6.99587e-012,-46.5087
0.024625,-25,-52.2774
0.0246875,-50,-56.2058
0.02475,-75,-58.8811
0.0248125,-50,-19.4919
0.024875,-25,7.33168
0.0249375,6.48261e-012,25.5983
0.025,25,38.0376
0.0250625,50,46.5087
0.025125,75,52.2774
0.0251875,100,56.2058
0.02525,125,58.8811
0.0253125,100,19.4919
0.025375,75,-7.33168
0.0254375,50,-25.5983
0.0255,25,-38.0376
0.0255625,-7.43408e-012,-46.5087
0.025625,-25,-52.2774
0.0256875,-50,-56.2058
0.02575,-75,-58.8811
0.0258125,-50,-19.4919
0.025875,-25,7.33168
0.0259375,6.92082e-012,25.5983
0.026,25,38.0376
0.0260625,50,46.5087
0.026125,75,52.2774
0.0261875,100,56.2058
0.02625,125,58.8811
0.0263125,100,19.4919
0.026375,75,-7.33168
0.0264375,50,-25.5983
0.0265,25,-38.0376
0.0265625,-7.86876e-012,-46.5087
0.026625,-25,-52.2774
0.0266875,-50,-56.2058
0.02675,-75,-58.8811
0.0268125,-50,-19.4919
0.026875,-25,7.33168
0.0269375,7.3555e-012,25.5983
0.027,25,38.0376
0.0270625,50,46.5087
0.027125,75,52.2774
0.0271875,100,56.2058
0.02725,125,58.8811
0.0273125,100,19.4919
0.027375,75,-7.33168
0.0274375,50,-25.5983
0.0275,25,-38.0376
0.0275625,-8.30343e-012,-46.5087
0.027625,-25,-52.2774
0.0276875,-50,-56.2058
0.02775,-75,-58.8811
0.0278125,-50,-19.4919
0.027875,-25,7.33168
0.0279375,7.79017e-012,25.5983
0.028,25,38.0376
0.0280625,50,46.5087
0.028125,75,52.2774
0.0281875,100,56.2058
0.02825,125,58.8811
0.0283125,100,19.4919
0.028375,75,-7.33168
0.0284375,50,-25.5983
0.0285,25,-38.0376
0.0285625,-8.74164e-012,-46.5087
0.028625,-25,-52.2774
0.0286875,-50,-56.2058
0.02875,-75,-58.8811
0.0288125,-50,-19.4919
0.028875,-25,7.33168
0.0289375,8.22838e-012,25.5983
0.029,25,38.0376
0.0290625,50,46.5087
0.029125,75,52.2774
0.0291875,100,56.2058
0.02925,125,58.8811
0.0293125,100,19.4919
0.029375,75,-7.33168
0.0294375,50,-25.5983
0.0295,25,-38.0376
0.0295625,-9.17985e-012,-46.5087
0.029625,-25,-52.2774
0.0296875,-50,-56.2058
0.02975,-75,-58.8811
0.0298125,-50,-19.4919
0.029875,-25,7.33168
0.0299375,8.66306e-012,25.5983
0.03,25,38.0376
0.0300625,50,46.5087
0.030125,75,52.2774
0.0301875,100,56.2058
0.03025,125,58.8811
0.0303125,100,19.4919
0.030375,75,-7.33168
0.0304375,50,-25.5983
0.0305,25,-38.0376
0.0305625,-9.61806e-012,-46.5087
0.030625,-25,-52.2774
0.0306875,-50,-56.2058
0.03075,-75,-58.8811
0.0308125,-50,-19.4919
0.030875,-25,7.33168
0.0309375,9.1048e-012,25.5983
0.031,25,38.0376
0.0310625,50,46.5087
0.031125,75,52.2774
0.0311875,100,56.2058
0.03125,125,58.8811
0.0313125,100,19.4919
0.031375,75,-7.33168
0.0314375,50,-25.5983
0.0315,25,-38.0376
0.0315625,-8.24336e-012,-46.5087
0.031625,-25,-52.2774
0.0316875,-50,-56.2058
0.03175,-75,-58.8811
0.0318125,-50,-19.4919
0.031875,-25,7.33168
0.0319375,7.73009e-012,25.5983
0.032,25,38.0376
0.0320625,50,46.5087
0.032125,75,52.2774
0.0321875,100,56.2058
0.03225,125,58.8811
0.0323125,100,19.4919
0.032375,75,-7.33168
0.0324375,50,-25.5983
0.0325,25,-38.0376
0.0325625,-8.67803e-012,-46.5087
0.032625,-25,-52.2774
0.0326875,-50,-56.2058
0.03275,-75,-58.8811
0.0328125,-50,-19.4919
0.032875,-25,7.33168
0.0329375,8.16477e-012,25.5983
0.033,25,38.0376
0.0330625,50,46.5087
0.033125,75,52.2774
0.0331875,100,56.2058
0.03325,125,58.8811
0.0333125,100,19.4919
0.033375,75,-7.33168
0.0334375,50,-25.5983
0.0335,25,-38.0376
0.0335625,-9.11624e-012,-46.5087
0.033625,-25,-52.2774
0.0336875,-50,-56.2058
0.03375,-75,-58.8811
0.0338125,-50,-19.4919
0.033875,-25,7.33168
0.0339375,8.60298e-012,25.5983
0.034,25,38.0376
0.0340625,50,46.5087
0.034125,75,52.2774
0.0341875,100,56.2058
0.03425,125,58.8811
0.0343125,100,19.4919
0.034375,75,-7.33168
0.0344375,50,-25.5983
0.0345,25,-38.0376
0.0345625,-9.55445e-012,-46.5087
0.034625,-25,-52.2774
0.0346875,-50,-56.2058
0.03475,-75,-58.8811
0.0348125,-50,-19.4919
0.034875,-25,7.33168
0.0349375,9.03766e-012,25.5983
0.035,25,38.0376
0.0350625,50,46.5087
0.035125,75,52.2774
0.0351875,100,56.2058
0.03525,125,58.8811
0.0353125,100,19.4919
0.035375,75,-7.33168
0.0354375,50,-25.5983
0.0355,25,-38.0376
0.0355625,-9.99266e-012,-46.5087
0.035625,-25,-52.2774
0.0356875,-50,-56.2058
0.03575,-75,-58.8811
0.0358125,-50,-19.4919
0.035875,-25,7.33168
0.0359375,9.4794e-012,25.5983
0.036,25,38.0376
0.0360625,50,46.5087
0.036125,75,52.2774
0.0361875,100,56.2058
0.03625,125,58.8811
0.0363125,100,19.4919
0.036375,75,-7.33168
0.0364375,50,-25.5983
0.0365,25,-38.0376
0.0365625,-1.04273e-011,-46.5087
0.036625,-25,-52.2774
0.0366875,-50,-56.2058
0.03675,-75,-58.8811
0.0368125,-50,-19.4919
0.036875,-25,7.33168
0.0369375,9.91408e-012,25.5983
0.037,25,38.0376
0.0370625,50,46.5087
0.037125,75,52.2774
0.0371875,100,56.2058
0.03725,125,58.8811
0.0373125,100,19.4919
0.037375,75,-7.33168
0.0374375,50,-25.5983
0.0375,25,-38.0376
0.0375625,-1.0862e-011,-46.5087
0.037625,-25,-52.2774
0.0376875,-50,-56.2058
0.03775,-75,-58.8811
0.0378125,-50,-19.4919
0.037875,-25,7.33168
0.0379375,1.03488e-011,25.5983
0.038,25,38.0376
0.0380625,50,46.5087
0.038125,75,52.2774
0.0381875,100,56.2058
0.03825,125,58.8811
0.0383125,100,19.4919
0.038375,75,-7.33168
0.0384375,50,-25.5983
0.0385,25,-38.0376
0.0385625,-9.49084e-012,-46.5087
0.038625,-25,-52.2774
0.0386875,-50,-56.2058
0.03875,-75,-58.8811
0.0388125,-50,-19.4919
0.038875,-25,7.33168
0.0389375,1.0787e-011,25.5983
0.039,25,38.0376
0.0390625,50,46.5087
0.039125,75,52.2774
0.0391875,100,56.2058
0.03925,125,58.8811
0.0393125,100,19.4919
0.039375,75,-7.33168
0.0394375,50,-25.5983
0.0395,25,-38.0376
0.0395625,-9.92552e-012,-46.5087
0.039625,-25,-52.2774
0.0396875,-50,-56.2058
0.03975,-75,-58.8811
0.0398125,-50,-19.4919
0.039875,-25,7.33168
0.0399375,1.12216e-011,25.5983
0.04,25,38.0376
0.0400625,50,46.5087
0.040125,75,52.2774
0.0401875,100,56.2058
0.04025,125,58.8811
0.0403125,100,19.4919
0.040375,75,-7.33168
0.0404375,50,-25.5983
0.0405,25,-38.0376
0.0405625,-1.03673e-011,-46.5087
0.040625,-25,-52.2774
0.0406875,-50,-56.2058
0.04075,-75,-58.8811
0.0408125,-50,-19.4919
0.040875,-25,7.33168
0.0409375,9.85046e-012,25.5983
0.041,25,38.0376
0.0410625,50,46.5087
0.041125,75,52.2774
0.0411875,100,56.2058
0.04125,125,58.8811
0.0413125,100,19.4919
0.041375,75,-7.33168
0.0414375,50,-25.5983
0.0415,25,-38.0376
0.0415625,-1.08019e-011,-46.5087
0.041625,-25,-52.2774
0.0416875,-50,-56.2058
0.04175,-75,-58.8811
0.0418125,-50,-19.4919
0.041875,-25,7.33168
0.0419375,1.20981e-011,25.5983
0.042,25,38.0376
0.0420625,50,46.5087
0.042125,75,52.2774
0.0421875,100,56.2058
0.04225,125,58.8811
0.0423125,100,19.4919
0.042375,75,-7.33168
0.0424375,50,-25.5983
0.0425,25,-38.0376
0.0425625,-1.30495e-011,-46.5087
0.042625,-25,-52.2774
0.0426875,-50,-56.2058
0.04275,-75,-58.8811
0.0428125,-50,-19.4919
0.042875,-25,7.33168
0.0429375,1.07269e-011,25.5983
0.043,25,38.0376
0.0430625,50,46.5087
0.043125,75,52.2774
0.0431875,100,56.2058
0.04325,125,58.8811
0.0433125,100,19.4919
0.043375,75,-7.33168
0.0434375,50,-25.5983
0.0435,25,-38.0376
0.0435625,-1.16748e-011,-46.5087
0.043625,-25,-52.2774
0.0436875,-50,-56.2058
0.04375,-75,-58.8811
0.0438125,-50,-19.4919
0.043875,-25,7.33168
0.0439375,1.29709e-011,25.5983
0.044,25,38.0376
0.0440625,50,46.5087
0.044125,75,52.2774
0.0441875,100,56.2058
0.04425,125,58.8811
0.0443125,100,19.4919
0.044375,75,-7.33168
0.0444375,50,-25.5983
0.0445,25,-38.0376
0.0445625,-1.39189e-011,-46.5087
0.044625,-25,-52.2774
0.0446875,-50,-56.2058
0.04475,-75,-58.8811
0.0448125,-50,-19.4919
0.044875,-25,7.33168
0.0449375,1.15962e-011,25.5983
0.045,25,38.0376
0.0450625,50,46.5087
0.045125,75,52.2774
0.0451875,100,56.2058
0.04525,125,58.8811
0.0453125,100,19.4919
0.045375,75,-7.33168
0.0454375,50,-25.5983
0.0455,25,-38.0376
0.0455625,-1.25477e-011,-46.5087
0.045625,-25,-52.2774
0.0456875,-50,-56.2058
0.04575,-75,-58.8811
0.0458125,-50,-19.4919
0.045875,-25,7.33168
0.0459375,1.38438e-011,25.5983
0.046,25,38.0376
0.0460625,50,46.5087
0.046125,75,52.2774
0.0461875,100,56.2058
0.04625,125,58.8811
0.0463125,100,19.4919
0.046375,75,-7.33168
0.0464375,50,-25.5983
0.0465,25,-38.0376
0.0465625,-1.47953e-011,-46.5087
0.046625,-25,-52.2774
0.0466875,-50,-56.2058
0.04675,-75,-58.8811
0.0468125,-50,-19.4919
0.046875,-25,7.33168
0.0469375,1.24691e-011,25.5983
0.047,25,38.0376
0.0470625,50,46.5087
0.047125,75,52.2774
0.0471875,100,56.2058
0.04725,125,58.8811
0.0473125,100,19.4919
0.047375,75,-7.33168
0.0474375,50,-25.5983
0.0475,25,-38.0376
0.0475625,-1.34241e-011,-46.5087
0.047625,-25,-52.2774
0.0476875,-50,-56.2058
0.04775,-75,-58.8811
0.0478125,-50,-19.4919
0.047875,-25,7.33168
0.0479375,1.47202e-011,25.5983
0.048,25,38.0376
0.0480625,50,46.5087
0.048125,75,52.2774
0.0481875,100,56.2058
0.04825,125,58.8811
0.0483125,100,19.4919
0.048375,75,-7.33168
0.0484375,50,-25.5983
0.0485,25,-38.0376
0.0485625,-1.20494e-011,-46.5087
0.048625,-25,-52.2774
0.0486875,-50,-56.2058
0.04875,-75,-58.8811
0.0488125,-50,-19.4919
0.048875,-25,7.33168
0.0489375,1.33455e-011,25.5983
0.049,25,38.0376
0.0490625,50,46.5087
0.049125,75,52.2774
0.0491875,100,56.2058
0.04925,125,58.8811
0.0493125,100,19.4919
0.049375,75,-7.33168
0.0494375,50,-25.5983
0.0495,25,-38.0376
0.0495625,-1.42935e-011,-46.5087
0.049625,-25,-52.2774
0.0496875,-50,-56.2058
0.04975,-75,-58.8811
0.0498125,-50,-19.4919
0.049875,-25,7.33168
0.0499375,1.55896e-011,25.5983
